100.733	140.938
101.862	141.603
102.99	141.494
104.12	142.582
105.247	141.758
106.374	140.999
107.504	140.27
108.631	139.641
109.759	139.194
110.886	138.817
112.015	138.536
113.141	138.352
114.268	138.262
115.396	138.269
116.522	138.379
117.65	138.549
118.776	138.845
119.901	139.268
121.029	140.623
122.154	138.399
123.281	138.125
124.406	142.293
125.531	144.955
126.658	145.972
127.783	148.34
128.91	150.024
130.034	150.461
131.158	149.952
132.284	149.211
133.408	148.823
134.532	148.735
135.658	148.775
136.782	148.956
137.907	149.123
139.031	149.434
140.154	149.891
141.279	150.531
142.402	151.266
143.524	152.039
144.649	152.832
145.772	153.66
146.894	154.485
148.018	155.344
149.14	156.136
150.262	156.974
151.386	157.823
152.508	158.554
153.63	159.18
154.753	159.517
155.874	160.014
156.995	160.348
158.119	160.752
159.239	161.213
160.36	161.575
161.483	161.927
162.603	162.231
163.724	162.156
164.846	161.967
165.966	161.905
167.086	162.265
168.208	162.784
169.328	163.625
170.447	164.016
171.566	164.236
172.688	164.24
173.807	164.217
174.926	164.257
176.047	164.416
177.166	164.714
178.284	164.965
179.403	165.352
180.523	165.717
181.641	166.153
182.759	166.644
183.877	167.22
184.997	167.877
186.115	168.642
187.232	169.456
188.349	170.612
189.469	171.835
190.586	173.024
191.703	173.5
192.82	173.666
193.938	173.601
195.055	173.505
196.171	173.247
197.288	173.079
198.406	172.658
199.522	172.056
200.638	170.934
201.754	169.74
202.871	168.711
203.987	168.857
205.102	169.603
206.217	170.699
207.333	171.951
208.45	173.223
209.564	174.474
210.679	175.627
211.794	176.315
212.908	176.926
214.024	177.236
215.139	177.322
216.253	176.966
217.366	176.092
218.48	174.719
219.596	173.007
220.709	171.213
221.823	169.161
222.936	167.247
224.049	165.619
225.164	164.762
226.277	164.632
227.39	164.865
228.502	165.926
229.615	167.234
230.727	168.561
231.841	169.846
232.953	170.854
234.065	171.903
235.177	172.87
236.288	173.753
237.4	174.535
238.511	175.215
239.624	175.652
240.736	175.99
241.846	176.547
242.957	177.892
244.068	178.679
245.179	179.535
246.289	179.915
247.399	180.767
248.511	183.559
249.621	190.319
250.731	195.735
251.841	201.548
252.951	218.785
254.06	237.903
255.17	256.482
256.279	274.052
257.388	291.661
258.499	300.432
259.608	301.159
260.716	296.918
261.825	321.374
262.933	294.905
264.042	275.518
265.15	260.084
266.258	247.284
267.366	236.751
268.474	227.799
269.581	219.696
270.691	212.511
271.798	205.251
272.905	199.369
274.012	194.037
275.119	189.617
276.226	185.926
277.333	183.675
278.439	181.895
279.546	180.441
280.652	178.826
281.758	177.409
282.864	176.09
283.97	174.911
285.076	173.815
286.182	172.821
287.287	171.912
288.393	171.097
289.498	170.382
290.603	169.495
291.708	168.911
292.813	168.958
293.918	168.224
295.022	167.347
296.129	169.01
297.233	167.484
298.337	175.501
299.441	183.278
300.545	189.647
301.649	184.072
302.753	176.241
303.856	170.898
304.96	170.439
306.063	172.802
307.166	172.503
308.269	172.905
309.37	173.681
310.472	174.482
311.575	175.317
312.678	176.138
313.78	176.847
314.882	177.322
315.984	177.797
317.086	178.198
318.188	178.495
319.29	178.626
320.391	178.641
321.493	178.463
322.594	178.282
323.695	178.002
324.796	177.714
325.897	177.422
326.998	177.25
328.098	177.06
329.199	177.248
330.299	177.659
331.4	178.134
332.5	178.646
333.6	179.069
334.697	179.064
335.797	178.516
336.897	177.254
337.996	175.881
339.095	174.845
340.195	174.806
341.294	175.197
342.393	175.745
343.491	176.429
344.59	177.242
345.689	177.846
346.785	178.49
347.883	179.162
348.981	179.797
350.079	180.41
351.177	180.891
352.275	181.479
353.373	182.009
354.47	181.085
355.568	180.795
356.663	180.902
357.76	181.144
358.857	181.681
359.954	182.896
361.05	185.394
362.147	187.112
363.243	188.457
364.34	189.671
365.434	190.597
366.53	189.834
367.626	189.08
368.722	189.839
369.817	191.758
370.913	193.283
372.006	194.339
373.102	195.147
374.197	195.844
375.292	196.38
376.387	197.111
377.481	197.205
378.574	197.224
379.668	197.12
380.763	197.05
381.857	197.049
382.951	197.49
384.045	198.016
385.137	198.656
386.231	199.487
387.324	200.354
388.418	201.377
389.511	202.44
390.602	203.469
391.695	204.493
392.788	205.098
393.881	205.396
394.974	206.899
396.064	209.527
397.156	212.245
398.249	214.897
399.341	217.332
400.431	219.512
401.523	221.364
402.615	222.907
403.706	224.27
404.798	225.298
405.887	226.141
406.978	226.7
408.069	227.091
409.16	227.437
410.249	227.517
411.34	226.628
412.431	224.682
413.521	222.393
414.609	221.099
415.699	220.198
416.79	219.485
417.877	218.345
418.967	217.044
420.057	215.812
421.147	214.618
422.234	213.463
423.323	212.43
424.412	211.581
425.501	211.149
426.588	210.698
427.677	210.244
428.766	209.845
429.852	209.06
430.941	207.219
432.029	205.08
433.115	202.95
434.203	200.9
435.291	199.041
436.379	197.355
437.464	195.772
438.552	194.323
439.639	193.022
440.724	191.86
441.812	190.884
442.899	190.015
443.983	189.254
445.07	188.571
446.157	188.12
447.241	187.761
448.327	187.443
449.414	187.133
450.498	186.455
451.584	185.726
452.67	185.159
453.753	184.731
454.839	185.362
455.924	186.067
457.007	186.942
458.093	187.872
459.176	188.645
460.261	189.233
461.345	189.636
462.428	190.041
463.513	190.372
464.597	190.497
465.679	190.422
466.763	190.245
467.845	190.082
468.929	189.954
470.013	189.788
471.095	189.729
472.178	189.544
473.26	190.323
474.343	191.278
475.426	192.376
476.507	193.491
477.59	194.443
478.671	195.012
479.753	195.475
480.836	195.857
481.916	196.08
482.998	196.251
484.078	196.285
485.16	196.295
486.24	196.216
487.322	196.111
488.404	196.061
489.483	195.815
490.564	195.574
491.643	195.244
492.725	194.922
493.803	194.551
494.884	194.321
495.963	194.36
497.044	194.233
498.124	194.122
499.202	193.491
500.283	192.535
501.361	191.72
502.441	190.766
503.518	190.874
504.598	191.23
505.676	191.798
506.755	192.448
507.832	193.19
508.911	193.983
509.988	194.336
511.067	194.857
512.144	195.244
513.223	195.547
514.299	195.786
515.378	196.025
516.454	196.203
517.532	196.466
518.608	197.01
519.686	197.417
520.762	197.69
521.839	198.57
522.915	199.482
523.992	200.595
525.068	201.624
526.145	202.371
527.22	202.85
528.297	203.289
529.371	203.067
530.448	202.593
531.523	202.072
532.597	201.466
533.673	200.832
534.747	200.519
535.823	200.214
536.897	199.922
537.973	199.712
539.046	199.571
540.122	199.568
541.195	199.531
542.268	199.715
543.344	199.93
544.417	200.168
545.491	199.368
546.564	198.385
547.639	197.371
548.711	196.653
549.784	196.125
550.858	195.873
551.93	196.042
553.004	196.647
554.076	198.148
555.147	199.018
556.221	199.324
557.292	199.423
558.366	199.51
559.437	199.698
560.508	199.793
561.581	199.896
562.652	199.924
563.725	199.919
564.795	199.895
565.866	199.641
566.938	199.394
568.008	199.094
569.078	198.81
570.15	198.591
571.22	198.405
572.29	198.701
573.361	199.199
574.431	199.794
575.502	200.394
576.571	200.352
577.64	200.575
578.711	201.064
579.78	201.482
580.849	201.969
581.919	202.396
582.988	202.788
584.056	203.083
585.126	203.24
586.194	203.068
587.262	202.514
588.332	201.762
589.4	200.827
590.467	199.964
591.535	199.577
592.604	199.554
593.671	200.292
594.738	201.323
595.807	202.396
596.874	203.185
597.941	204.708
599.009	206.119
600.076	207.43
601.142	208.56
602.208	209.414
603.276	209.927
604.342	210.164
605.408	210.143
606.476	209.753
607.541	209.164
608.607	208.278
609.672	206.877
610.739	205.495
611.804	204.132
612.869	203.773
613.934	204.027
615.001	204.895
616.065	205.847
617.13	206.909
618.194	207.971
619.26	208.954
620.324	209.955
621.388	210.855
622.452	211.737
623.518	212.599
624.581	213.352
625.645	214.116
626.708	214.783
627.771	215.32
628.836	215.762
629.899	216.071
630.962	216.382
632.025	216.617
633.087	216.837
634.152	216.985
635.214	217.171
636.276	217.4
637.338	217.645
638.4	218.177
639.464	218.513
640.526	217.948
641.587	216.939
642.649	215.381
643.71	214.201
644.773	213.455
645.834	213.436
646.895	213.689
647.956	214.069
649.017	214.467
650.077	214.749
651.14	215.35
652.2	216.117
653.26	216.822
654.32	217.419
655.38	217.946
656.44	218.095
657.5	218.122
658.561	217.912
659.621	217.502
660.68	216.738
661.739	215.596
662.799	213.715
663.857	212.69
664.916	212.66
665.977	213.057
667.036	213.751
668.094	214.885
669.152	216.215
670.211	217.882
671.269	219.765
672.327	219.973
673.385	221.449
674.442	223.738
675.5	225.986
676.559	227.592
677.617	228.039
678.674	227.226
679.731	224.19
680.788	222.229
681.845	222.484
682.902	224.072
683.958	227.529
685.015	234.145
686.071	241.252
687.127	248.481
688.184	255.78
689.24	263.298
690.297	270.464
691.353	277.024
692.409	282.792
693.464	287.708
694.52	291.715
695.575	294.805
696.63	297.014
697.685	298.213
698.74	298.288
699.795	297.226
700.849	295.571
701.904	293.886
702.958	291.282
704.013	287.686
705.067	283.198
706.121	278.096
707.175	272.414
708.228	266.719
709.282	261.195
710.336	255.89
711.389	250.984
712.442	246.509
713.496	242.424
714.549	238.759
715.602	235.398
716.654	232.497
717.707	230.114
718.76	227.993
719.812	227.138
720.864	227.15
721.917	227.395
722.969	227.932
724.021	228.229
725.072	228.745
726.124	229.339
727.176	229.957
728.227	230.604
729.278	231.245
730.33	231.826
731.381	232.402
732.432	232.657
733.482	232.836
734.533	232.889
735.582	232.942
736.632	233.07
737.683	233.262
738.733	233.901
739.783	234.542
740.833	235.154
741.883	235.677
742.933	236.689
743.982	237.77
745.032	238.872
746.081	239.77
747.13	240.472
748.18	241.026
749.227	241.359
750.275	241.38
751.324	241.117
752.373	240.821
753.421	239.916
754.47	238.992
755.518	237.999
756.566	237.055
757.614	236.572
758.66	236.428
759.708	236.425
760.756	236.68
761.803	237.11
762.851	238.183
763.898	239.465
764.945	240.78
765.992	241.464
767.037	242.012
768.084	242.002
769.131	241.766
770.177	241.529
771.224	241.26
772.27	241.38
773.314	241.562
774.36	241.604
775.406	241.586
776.452	241.588
777.498	241.868
778.543	242.823
779.587	243.946
780.632	244.857
781.678	245.525
782.723	245.829
783.768	245.55
784.813	245.125
785.855	244.62
786.9	243.968
787.944	243.999
788.989	244.562
790.033	244.861
791.075	245.1
792.119	245.105
793.163	245.231
794.207	245.401
795.249	245.493
796.292	246.195
797.336	246.92
798.379	247.803
799.422	248.62
800.463	249.155
801.506	249.131
802.549	248.876
803.592	248.528
804.632	247.894
805.675	247.146
806.717	246.229
807.759	245.194
808.799	244.111
809.841	243.295
810.883	242.118
811.925	240.872
812.965	239.838
814.006	239.174
815.047	239.922
816.087	241.661
817.128	243.771
818.169	245.145
819.21	247.195
820.249	249.155
821.289	250.895
822.33	252.382
823.368	253.62
824.409	254.417
825.449	254.539
826.489	254.29
827.527	253.599
828.566	252.599
829.606	251.24
830.644	249.599
831.683	247.875
832.723	246.388
833.76	245.211
834.799	244.508
835.838	244.099
836.875	243.425
837.913	242.735
838.952	242.248
839.989	242.055
841.027	242.155
842.065	242.638
843.101	243.271
844.139	243.941
845.177	244.628
846.213	245.342
847.251	245.691
848.288	246.374
849.324	247.137
850.361	247.969
851.396	248.485
852.433	248.601
853.47	248.684
854.505	248.548
855.542	248.315
856.578	247.932
857.613	247.459
858.649	247.015
859.683	246.515
860.719	246.082
861.755	245.525
862.789	244.865
863.825	244.281
864.858	243.78
865.894	243.486
866.929	243.902
867.963	244.319
868.998	245.64
870.031	247.307
871.066	249.179
872.098	251.149
873.133	252.591
874.168	254.302
875.2	256.223
876.234	257.981
877.267	259.585
878.301	260.927
879.333	261.871
880.366	262.32
881.398	262.358
882.432	261.886
883.465	261.134
884.497	260.255
885.53	259.604
886.561	259.566
887.594	258.192
888.625	256.594
889.658	255.153
890.688	254.018
891.721	253.327
892.751	252.965
893.784	252.965
894.814	253.106
895.846	253.915
896.876	254.986
897.907	256.25
898.937	257.664
899.969	259.218
900.998	260.849
902.03	262.496
903.059	263.605
904.09	264.868
905.119	266.097
906.15	267.577
907.178	268.99
908.209	270.282
909.238	271.584
910.268	272.391
911.296	272.658
912.326	272.601
913.354	272.182
914.382	271.661
915.412	270.92
916.44	270.1
917.469	269.053
918.497	268.197
919.526	267.119
920.553	265.739
921.582	263.964
922.609	261.92
923.636	260.101
924.665	259.01
925.692	258.251
926.72	258.059
927.747	258.412
928.775	259.58
929.801	261.161
930.827	261.849
931.855	261.968
932.881	261.755
933.908	261.364
934.934	260.948
935.959	260.485
936.987	259.948
938.012	259.029
939.039	258.241
940.064	257.586
941.089	257.203
942.116	257.164
943.14	257.754
944.165	258.722
945.191	260.127
946.215	262.047
947.241	264.454
948.266	267.566
949.289	270.707
950.315	273.281
951.339	275.329
952.362	276.756
953.388	277.446
954.411	277.593
955.434	277.156
956.459	276.337
957.482	274.805
958.505	273.117
959.53	271.673
960.553	270.693
961.575	270.031
962.6	269.573
963.622	269.196
964.644	269.288
965.668	269.802
966.69	270.095
967.712	269.968
968.733	269.699
969.757	269.424
970.778	269.038
971.8	268.738
972.823	268.47
973.844	268.063
974.865	267.513
975.886	266.844
976.909	266.064
977.929	265.283
978.95	264.405
979.972	263.443
980.992	262.657
982.013	262.336
983.033	261.879
984.055	261.282
985.074	259.859
986.094	258.099
987.114	255.336
988.135	253.406
989.154	252.953
990.174	253.275
991.193	254.141
992.214	255.703
993.233	257.665
994.251	259.635
995.27	261.521
996.291	262.933
997.309	263.756
998.327	263.797
999.346	260.777
1000.36	258.219
1001.38	256.75
1002.4	255.602
1003.42	254.595
1004.44	253.567
1005.45	252.328
1006.47	251.235
1007.49	250.446
1008.51	249.936
1009.52	249.902
1010.54	250.766
1011.56	252.036
1012.58	253.833
1013.59	256.054
1014.61	257.921
1015.63	260.294
1016.64	262.379
1017.66	264.081
1018.68	264.923
1019.69	265.565
1020.71	265.862
1021.72	266.296
1022.74	263.777
1023.76	263.674
1024.77	263.522
1025.79	263.342
1026.8	263.282
1027.82	263.173
1028.83	263.263
1029.85	263.393
1030.86	263.375
1031.88	263.112
1032.89	262.748
1033.91	261.602
1034.92	259.781
1035.93	258.055
1036.95	256.46
1037.96	255.662
1038.98	255.181
1039.99	255.584
1041	256.199
1042.02	257.061
1043.03	257.502
1044.04	257.656
1045.06	257.451
1046.07	256.436
1047.08	254.853
1048.1	253.575
1049.11	253.462
1050.12	253.686
1051.13	254.025
1052.14	254.503
1053.16	254.704
1054.17	254.914
1055.18	255.209
1056.19	255.834
1057.21	256.994
1058.22	258.567
1059.23	260.303
1060.24	261.996
1061.25	262.835
1062.26	262.91
1063.27	259.407
1064.28	257.763
1065.29	256.55
1066.3	256.012
1067.32	256.249
1068.33	258.357
1069.34	261.722
1070.35	263.434
1071.36	264.162
1072.37	264.063
1073.38	262.841
1074.39	261.878
1075.39	261.349
1076.4	260.943
1077.41	260.567
1078.42	260.575
1079.43	260.797
1080.44	261.316
1081.45	261.782
1082.46	262.027
1083.47	263.211
1084.48	264.843
1085.48	264.907
1086.49	264.506
1087.5	263.686
1088.51	262.416
1089.51	261.128
1090.52	259.868
1091.53	258.92
1092.54	258.531
1093.54	258.498
1094.55	258.557
1095.56	258.757
1096.57	259.245
1097.57	260.2
1098.58	262.137
1099.59	265.081
1100.59	268.044
1101.6	270.23
1102.61	271.769
1103.61	272.85
1104.62	273.267
1105.62	272.964
1106.63	272.012
1107.63	270.897
1108.64	269.832
1109.65	269.241
1110.65	268.998
1111.66	269.026
1112.66	269.272
1113.67	269.696
1114.67	270.287
1115.68	270.949
1116.68	272.029
1117.68	273.205
1118.69	274.29
1119.69	275.161
1120.7	275.077
1121.7	274.975
1122.7	274.44
1123.71	273.335
1124.71	271.632
1125.72	270.399
1126.72	269.297
1127.72	268.296
1128.72	267.397
1129.73	267.373
1130.73	267.501
1131.73	267.648
1132.74	267.756
1133.74	267.673
1134.74	267.54
1135.74	267.413
1136.75	267.118
1137.75	266.796
1138.75	266.538
1139.75	265.669
1140.75	264.758
1141.76	263.813
1142.76	262.954
1143.76	262.116
1144.76	261.382
1145.76	260.903
1146.76	261.239
1147.76	261.409
1148.76	262.215
1149.76	263.192
1150.76	264.209
1151.77	265.249
1152.76	266.328
1153.76	267.318
1154.76	267.825
1155.77	268.121
1156.76	268.248
1157.76	268.307
1158.76	268.239
1159.76	268.078
1160.76	267.872
1161.76	267.613
1162.76	267.146
1163.76	266.616
1164.76	266.222
1165.76	266.122
1166.76	266.661
1167.75	267.951
1168.75	269.353
1169.75	270.769
1170.75	272.133
1171.75	273.227
1172.74	273.888
1173.74	274.354
1174.74	274.562
1175.74	274.524
1176.74	274.466
1177.73	274.047
1178.73	273.537
1179.73	272.917
1180.72	272.305
1181.72	271.74
1182.72	271.369
1183.71	271.135
1184.71	271.08
1185.71	271.447
1186.7	271.731
1187.7	272.177
1188.69	272.722
1189.69	273.195
1190.69	273.907
1191.68	274.769
1192.68	275.699
1193.67	276.91
1194.67	277.892
1195.66	279.154
1196.66	280.694
1197.65	282.561
1198.65	286.909
1199.64	291.897
